w,energy,axial_pressure,hoop_pressure,normal_pressure_integral,condensate_integral,current_magnitude,center_condensate,max_normal_pressure,minimum_potential,max_bvp_residual,outer_tail_derivative,nodes,current_mode_speed_squared,axial_transverse_speed_squared,hoop_transverse_speed_squared,envelope_derivative_error
-0.06000000000000002,0.6989931822446646,-0.40392147909530035,-0.40392147909530035,-6.206655013233737e-13,4.917861719156067,1.2046251837498836,0.7845064155016922,2.303990331853356e-13,1.9894631354466515e-55,2.499053276762888e-10,4.432661511211958e-10,1503,0.43210930584224966,0.5778618294933784,0.5778618294933784,-0.00019663780477818804
-0.05900000000000001,0.6933775812509787,-0.4063670411985986,-0.4063670411985986,-6.015956442839525e-13,4.86458542461661,1.18160369407435,0.7832753386262862,2.1294771501700893e-13,4.3371927280581027e-57,2.4984238202689147e-10,4.066638209912023e-10,1507,0.43895036818037136,0.5860689070238454,0.5860689070238454,9.727251461377762e-05
-0.05800000000000002,0.6879098962951136,-0.4087862590649462,-0.4087862590649462,-5.756913978218695e-13,4.8124765039684,1.1589978196150237,0.7820425369745307,2.1037338537865935e-13,1.0100426745129754e-55,2.4981045773561403e-10,3.732624031960923e-10,1511,0.4459220145118175,0.5942438991887635,0.5942438991887635,9.326526404773716e-05
-0.057000000000000016,0.6825844553673548,-0.411179704233095,-0.411179704233095,-5.666512450773525e-13,4.761486862004554,1.136789407415196,0.7808079965656811,1.9282492269567797e-13,1.328265272967794e-56,2.498155803321379e-10,3.427640370142643e-10,1515,0.4529105189226891,0.6023865633034456,0.6023865633034456,8.949685495052151e-05
-0.056000000000000015,0.6773959160636374,-0.4135479249206607,-0.4135479249206607,-5.530573038330314e-13,4.711571270410295,1.114961261580293,0.7795717035267999,1.8826606940081092e-13,7.339399326648321e-56,2.496929002489907e-10,3.149005145642713e-10,1517,0.4599187634916498,0.6104966314585965,0.6104966314585965,8.594875938117141e-05
-0.055000000000000014,0.6723392403938574,-0.4158914474010241,-0.4158914474010241,-5.461572557042016e-13,4.662687145324239,1.0934970634777466,0.778333644082844,1.8158391457134826e-13,2.065844424967119e-55,2.499241712555892e-10,2.8943010399656607e-10,1518,0.4669496211297831,0.6185738127636194,0.6185738127636194,8.260420665484602e-05
-0.05400000000000001,0.6674096719603827,-0.4182107772743983,-0.4182107772743983,-5.335925266440365e-13,4.614794346036747,1.0723812989023482,0.7770938045473413,1.7120332929110305e-13,3.422051658834038e-55,2.4971566817560026e-10,2.6613474151966516e-10,1520,0.47400596168819725,0.626617795402916,0.626617795402916,7.944799266068614e-05
-0.05300000000000001,0.6626027152436084,-0.42050640064304606,-0.42050640064304606,-5.099497985842871e-13,4.5678549924634355,1.0515991913771978,0.7758521713136461,1.7062046220317484e-13,6.5004522341848606e-55,2.498294435472054e-10,2.4481754476491735e-10,1525,0.4810906578607586,0.6346282485251291,0.6346282485251291,7.646630609192684e-05
-0.05200000000000001,0.6579141167646315,-0.422778785199474,-0.422778785199474,-5.049212716953671e-13,4.521833299329951,1.031136640858193,0.7746087308466721,1.7325724188665959e-13,4.370075140786321e-56,2.499933014561885e-10,2.2530060827232407e-10,1526,0.48820659090810226,0.6426048239830107,0.6426048239830107,7.36465739543668e-05
-0.05100000000000001,0.6533398479240033,-0.4250283812355239,-0.4250283812355239,-4.899063116885313e-13,4.476695425264298,1.0109801671940442,0.7733634696750674,1.765393387032077e-13,1.514432998020288e-55,2.499234134365312e-10,2.0742304610614015e-10,1528,0.49535665625343195,0.6505471579394057,0.6505471579394057,7.097733542504869e-05
-0.05000000000000001,0.6488760893404719,-0.4272556225794092,-0.4272556225794092,-4.832612164469104e-13,4.432409335221255,0.991116857765938,0.7721163743838577,1.7898182935738305e-13,1.117404623292747e-57,2.494312588719998e-10,1.910392514145641e-10,1531,0.5025437689724931,0.6584548723527148,0.6584548723527148,6.844812442174941e-05
-0.04900000000000001,0.6445192165344453,-0.42946092746699405,-0.42946092746699405,-4.768121190189289e-13,4.38894467484594,0.9715343187886204,0.7708674316074573,1.8118839761882555e-13,6.2230152778611435e-56,2.4974386612468435e-10,1.760173474944592e-10,1532,0.5097708692052991,0.6663275763540282,0.6663275763540282,6.604936829512909e-05
-0.048000000000000015,0.6402657868197789,-0.4316446993529916,-0.4316446993529916,-4.744532617455874e-13,4.3462726555580655,0.9522206298068135,0.7696166280230206,1.827843432167242e-13,3.234972262043337e-57,2.497039871070544e-10,1.6223780696422982e-10,1533,0.5170409275262287,0.6741648675263205,0.6741648675263205,6.377229654308536e-05
-0.047000000000000014,0.6361125272831207,-0.4338073276671456,-0.4338073276671456,-4.575149226432378e-13,4.304365949276067,0.9331643009612517,0.7683639503441486,1.8544887847582459e-13,7.366456997076462e-56,2.4961370903074513e-10,1.495922200123097e-10,1538,0.5243569502952792,0.6819663330951299,0.6819663330951299,6.16088619875832e-05
-0.04600000000000001,0.6320563237441347,-0.4359491885199917,-0.4359491885199917,-4.565705241022251e-13,4.263198591829194,0.9143542326337334,0.767109385314903,1.864133847284677e-13,1.0999616670442841e-55,2.4973270920955334e-10,1.379821939218088e-10,1538,0.5317219850119406,0.6897315510389073,0.6897315510389073,5.955167138482764e-05
-0.04500000000000001,0.6280942106016901,-0.43807064536231755,-0.43807064536231755,-4.560672919251879e-13,4.2227458942082805,0.895779677106698,0.7658529197040737,1.8705870186153106e-13,1.3863882356630171e-56,2.499635226913976e-10,1.2731836902344087e-10,1540,0.5391391257014013,0.6974600911265568,0.6974600911265568,5.759392098880767e-05
-0.04400000000000001,0.6242233614819925,-0.4401720496020419,-0.4401720496020419,-4.4499297585019925e-13,4.182984360907966,0.8774302018955284,0.7645945402997263,1.8867546414114145e-13,3.869049290488984e-56,2.491798582687323e-10,1.1751953801414345e-10,1543,0.5466115183622758,0.7051515158884997,0.7051515158884997,5.572934348663239e-05
-0.04300000000000001,0.6204410806135735,-0.44225374118191235,-0.44225374118191235,-4.4635319537224213e-13,4.143891614689792,0.859295654425614,0.7633342339040183,1.8868240303504535e-13,4.16906085703467e-56,2.49718412888392e-10,1.0851185661190383e-10,1544,0.5541423664832464,0.7128053815272094,0.7128053815272094,5.3952156257253137e-05
-0.04200000000000001,0.6167447948621299,-0.44431604912104433,-0.44431604912104433,-4.439803957724557e-13,4.105446327168703,0.8413661277357474,0.7620719873281588,1.8888363095825866e-13,8.962402160713814e-57,2.4997114113039714e-10,1.0022813586107607e-10,1546,0.5617349366681521,0.7204212387724632,0.7204212387724632,5.225701598909893e-05
-0.04100000000000001,0.6131320463655546,-0.44635929202311325,-0.44635929202311325,-4.456383637544938e-13,4.067628154693694,0.8236319268940041,0.7608077873876513,1.886407696716219e-13,1.0275598402186267e-55,2.4978637996524903e-10,9.260720661705848e-11,1548,0.5693925643878579,0.7279986336858177,0.7279986336858177,5.063898268486966e-05
-0.04000000000000001,0.6096004857154171,-0.4483837785537033,-0.4483837785537033,-4.4396778722839346e-13,4.030417679042845,0.8060835358085691,0.7595416208977066,1.886407696716219e-13,1.50861385643396e-55,2.499151458343575e-10,8.559334874921652e-11,1551,0.5771186598782077,0.7355371084186185,0.7355371084186185,4.9093480866346795e-05
-0.03900000000000001,0.6061478656369091,-0.4503898078891176,-0.4503898078891176,-4.480277871832392e-13,3.9937963525074727,0.7887115841083975,0.7582734746688058,1.881481082044445e-13,5.86512966923135e-57,2.4974502449496706e-10,7.913577765496572e-11,1554,0.5849167142139015,0.7430362019271833,0.7430362019271833,4.76162687310655e-05
-0.038000000000000006,0.602772035124001,-0.45237767013874847,-0.45237767013874847,-4.545052165869483e-13,3.957746446980333,0.7715068137523137,0.7570033355024616,1.8762769116165146e-13,9.801404638013248e-58,2.4990829417088867e-10,7.318818228901107e-11,1559,0.5927903055796232,0.7504954506485794,0.7504954506485794,4.6203409186151845e-05
-0.03700000000000001,0.5994709339909546,-0.45434764674291606,-0.45434764674291606,-4.60930981342189e-13,3.92225100670374,0.7544600450022352,0.7557311901871155,1.87586057798228e-13,1.2904044480172869e-57,2.4994380258303813e-10,6.770830894423726e-11,1564,0.6007431057671866,0.7579143891399607,0.7579143891399607,4.48512422184244e-05
-0.03600000000000001,0.5962425878051233,-0.45630001084793653,-0.45630001084793653,-4.793274998615554e-13,3.8872938043662986,0.7375621413635098,0.7544570254941328,1.8906404219976025e-13,1.6635520016160356e-57,2.49864606183571e-10,6.265758606317137e-11,1578,0.6087788869230913,0.7652925506842094,0.7652925506842094,4.355635745190156e-05
-0.03500000000000001,0.5930851031693807,-0.45823502765999746,-0.45823502765999746,-5.889750687509162e-13,3.852859300268092,0.7208039730524394,0.7531808281739331,8.65904570268583e-14,3.30630357466582e-57,2.491375374743437e-10,5.800078587238353e-11,1608,0.6169015285590912,0.7726294678642922,0.7726294678642922,4.231561863643485e-05
-0.03400000000000001,0.5899966633255105,-0.46015295477944174,-0.46015295477944174,-5.902752833009203e-13,3.8189326042961365,0.7041763784942708,0.7519025849530121,8.760353553682876e-14,4.271553918661043e-56,2.4923326440937086e-10,5.370571877841473e-11,1607,0.625115024900581,0.7799246731088174,0.7799246731088174,4.112606485073833e-05
-0.03300000000000001,0.586975524052743,-0.4620540425164232,-0.4620540425164232,-5.869188517542918e-13,3.7854994404945383,0.6876701232869488,0.7506222825289073,8.80268080649671e-14,1.0169530996159672e-56,2.497801880525556e-10,4.974295742198127e-11,1605,0.6334234925536028,0.7871776992100016,0.7871776992100016,3.998491204715293e-05
-0.03200000000000001,0.5840200098378234,-0.4639385341897605,-0.4639385341897605,-5.885751467944391e-13,3.752546114001967,0.6712758559688861,0.7493399075678189,8.90294782340817e-14,4.367468086323352e-56,2.4894778023991794e-10,4.608558708260952e-11,1604,0.6418311785228253,0.7943880798169769,0.7943880798169769,3.888960586384549e-05
-0.031000000000000007,0.5811285102952872,-0.4658066664096371,-0.4658066664096371,-5.854237742988173e-13,3.7200594801822646,0.6549840598204755,0.7480554467009096,8.941458684574854e-14,3.8616925196151876e-56,2.488291909148114e-10,4.270898000212236e-11,1603,0.6503424686672352,0.801555349905218,0.801555349905218,3.7837742159041454e-05
-0.030000000000000006,0.5782994768185885,-0.46765866934542705,-0.46765866934542705,-5.874243444830055e-13,3.6880269157720473,0.6387849997798731,0.7467688865210153,9.045195148438268e-14,8.347494352954708e-57,2.4868331735921795e-10,3.959059101839491e-11,1601,0.6589618965768509,0.8086790462238836,0.8086790462238836,3.682707237562255e-05
-0.02900000000000001,0.5755314194443223,-0.4694947669795538,-0.4694947669795538,-5.897791390245515e-13,3.656436291888568,0.6226686633696568,0.7454802135794191,9.154482727424806e-14,2.7789376453895716e-56,2.498022134052501e-10,3.6709772458590475e-11,1599,0.6676941529311164,0.8157587077224259,0.8157587077224259,3.58554902604169e-05
-0.028000000000000008,0.5728229039135,-0.4713151773482961,-0.4713151773482961,-5.868478810224009e-13,3.625275948757281,0.6066246942961226,0.7441894143827166,9.198891648409813e-14,1.725159852866861e-57,2.4845689143868835e-10,3.404760641591292e-11,1599,0.6765440953818185,0.8227938759576341,0.8227938759576341,3.492102226765326e-05
-0.027000000000000007,0.5701725489151385,-0.47312011277035565,-0.47312011277035565,-5.984106613616682e-13,3.5945346720289932,0.5906423170814142,0.7428964753897541,9.378262055825815e-14,1.9331213552993343e-57,2.496377340825491e-10,3.158675258815659e-11,1594,0.6855167589966094,0.8297840954822474,0.8297840954822474,3.402181886547062e-05
-0.026000000000000006,0.5675790234987103,-0.47490978006396267,-0.47490978006396267,-5.955246686911221e-13,3.5642016705672077,0.5747102507005821,0.7416013830086113,9.420242363944453e-14,5.139239245722276e-57,2.4830590257832314e-10,2.9311310202285655e-11,1594,0.6946173673229133,0.8367289142161926,0.8367289142161926,3.315614229038033e-05
-0.025000000000000005,0.5650410446432115,-0.4766843807532074,-0.4766843807532074,-6.013491957654569e-13,3.534266555600165,0.5588166086927324,0.7403041235936825,9.564571357145724e-14,2.923607582000103e-57,2.4988827887011217e-10,2.7206692699502014e-11,1590,0.7038513441161256,0.8436278838012629,0.8436278838012629,3.2322360498548974e-05
-0.024000000000000007,0.5625573749715238,-0.4784441112642842,-0.4784441112642842,-5.98540937278226e-13,3.504719321134989,0.5429487825554872,0.7390046834427729,9.614878337949051e-14,6.033486541150923e-57,2.4961283814080157e-10,2.5259513816068348e-11,1590,0.7132243257913353,0.8504805599402242,0.8504805599402242,3.151894051511839e-05
-0.023000000000000007,0.5601268205997958,-0.4801891631122234,-0.4801891631122234,-6.01577464407128e-13,3.4755503255466285,0.527093304363058,0.7377030487942827,9.734921202486646e-14,2.6761697987448354e-57,2.495042678186285e-10,2.3457484107442112e-11,1588,0.7227421746631388,0.8572865027209848,0.8572865027209848,3.074443745609834e-05
-0.022000000000000006,0.5577482291123282,-0.48191972307870556,-0.48191972307870556,-5.989728837102719e-13,3.446750274255575,0.5112356833866152,0.7363992058244091,9.784187349204387e-14,5.324567447119941e-60,2.489910819736512e-10,2.17893167951936e-11,1587,0.7324109930364672,0.8640452769266416,0.8640452769266416,2.9997493329991798e-05
-0.021000000000000005,0.5554204876532897,-0.4836359733814655,-0.4836359733814655,-6.023144046171356e-13,3.4183102034201927,0.4953602099310548,0.7350931406444171,9.90214854557081e-14,2.2288079262269065e-57,2.49549550234078e-10,2.0244642100992724e-11,1585,0.7422371382242741,0.8707564523319596,0.8707564523319596,2.927682787312591e-05
-0.020000000000000004,0.5531425211272103,-0.48533809183578147,-0.48533809183578147,-5.999027998323975e-13,3.3902214645714372,0.47944971746453047,0.7337848392979269,9.963557756620389e-14,4.1334823229373184e-58,2.482913024772815e-10,1.8813929289389678e-11,1585,0.7522272385702361,0.8774196039869527,0.8774196039869527,2.8581233800339945e-05
-0.019000000000000003,0.5509132905009212,-0.4870262520085047,-0.4870262520085047,-6.035582211272104e-13,3.3624757101271867,0.4634852911611233,0.7324742877582603,1.0090539515061892e-13,1.0096463073336211e-57,2.499323921807821e-10,1.748841562986555e-11,1582,0.7623882105640702,0.8840343124880381,0.8840343124880381,2.790957250131676e-05
-0.018000000000000006,0.5487317912001012,-0.4887006233650538,-0.4887006233650538,-6.037927656612006e-13,3.3350648797248583,0.4474459068262166,0.7311614719257972,1.0164091790443308e-13,9.300335226608967e-58,2.499725196775928e-10,1.6260041662962538e-11,1581,0.7727272771437885,0.890600164237329,0.890600164237329,2.7260769724701817e-05
-0.017000000000000005,0.5465970515941938,-0.4903613714097688,-0.4903613714097688,-6.074713827837351e-13,3.3079811873191125,0.4313079782547175,0.7298463776253831,1.0286216323152075e-13,4.7237450455038194e-58,2.498923185797548e-10,1.5121392211207542e-11,1580,0.7832519872899659,0.8971167516904653,0.8971167516904653,2.6633808517972923e-05
-0.016000000000000004,0.5445081315638696,-0.4920086578199899,-0.4920086578199899,-6.054463441097018e-13,3.2812171089924793,0.41504478247716775,0.7285289906037431,1.0339992750907356e-13,1.0238829133009342e-58,2.4913569787290527e-10,1.4065642543953985e-11,1578,0.7939702370252698,0.9035836735934556,0.9035836735934556,2.6027729390198928e-05
-0.015000000000000003,0.5424641211457235,-0.49364264057422014,-0.49364264057422014,-6.033880591124619e-13,3.254765371433558,0.39862571962461907,0.7272092965269384,1.0404177519518498e-13,1.2288534790154857e-58,2.4868827342548974e-10,1.3086509252605559e-11,1578,0.8048902919455095,0.9100005352088745,0.9100005352088745,2.5441624703193e-05
-0.014000000000000004,0.5404641392492093,-0.49526347407467275,-0.49526347407467275,-6.075291605852833e-13,3.228618941038325,0.38201534488818656,0.7258872809778303,1.0545730955158206e-13,5.836507688337737e-61,2.4919216638410195e-10,1.2178205425927855e-11,1576,0.8160208114174802,0.9163669485318165,0.9163669485318165,2.4874634005245255e-05
-0.013000000000000003,0.5385073324412631,-0.49687130926452666,-0.49687130926452666,-6.056651141234876e-13,3.2027710135951164,0.3651720801921009,0.7245629294535613,1.061720156236845e-13,1.6464955918509417e-58,2.4792793054969597e-10,1.1335399684179013e-11,1575,0.8273708746008442,0.9226825324959195,0.9226825324959195,2.432594373846797e-05
-0.012000000000000004,0.5365928737943568,-0.49846629374015533,-0.49846629374015533,-6.179980721994512e-13,3.177215004516793,0.34804646560354524,0.72323622736307,1.081912337497215e-13,1.4040678220674206e-58,2.49855631096492e-10,1.0553178749672472e-11,1571,0.8389500084544693,0.9289469131697543,0.9289469131697543,2.379478296332671e-05
-0.011000000000000003,0.5347199617940337,-0.5000485718586095,-0.5000485718586095,-6.162023259098231e-13,3.151944539584029,0.3305787322057325,0.7219071600245879,1.0887124535230441e-13,5.72766569260874e-58,2.493554725409776e-10,9.827013250061382e-12,1570,0.8507682179182563,0.9351597239439153,0.9351597239439153,2.328042113597384e-05
-0.010000000000000002,0.5328878193022863,-0.5016182848405816,-0.5016182848405816,-6.143963534575275e-13,3.1269534461704818,0.3126953446170482,0.720575712663184,1.0961023755307053e-13,5.542616068379373e-60,2.488388508661862e-10,9.152726425119768e-12,1569,0.8628360184718746,0.9413206057090099,0.9413206057090099,2.2782163373813447e-05
-0.009000000000000003,0.5310956925733653,-0.5031755708691065,-0.5031755708691065,-6.189501663754679e-13,3.1022357449176385,0.2943039237818658,0.7192418704082904,1.1112638587107426e-13,8.868185709406996e-59,2.490031719045378e-10,8.526465499307424e-12,1567,0.8751644712943025,0.9474292070248678,0.9474292070248678,2.2299351554844193e-05
-0.008000000000000002,0.5293428503188694,-0.5047205651842024,-0.5047205651842024,-6.173247807004874e-13,3.077785641833371,0.27528551661248957,0.7179056182912386,1.1189660309440796e-13,7.444525112675684e-60,2.480029890947609e-10,7.944675496128606e-12,1567,0.887765221282318,0.9534851842811614,0.9534851842811614,2.183136052824608e-05
-0.007000000000000002,0.527628582819183,-0.5062534001736609,-0.5062534001736609,-6.239231182043729e-13,3.053597520788872,0.2554822982767605,0.7165669412428174,1.1352377371487421e-13,4.629339959046391e-60,2.499126269080678e-10,7.404075246440684e-12,1564,0.9006505381992729,0.9594882018496574,0.9594882018496574,2.1377596218341566e-05
-0.006000000000000002,0.5259522010785166,-0.5077742054601837,-0.5077742054601837,-6.224887218619174e-13,3.029665936388815,0.23467691432411564,0.7152258240908062,1.1423847978697665e-13,1.2496811332735771e-58,2.4935102336954366e-10,6.9016354138764466e-12,1563,0.9138333612683511,0.9654379322283334,0.9654379322283334,2.0937494501716003e-05
-0.005000000000000001,0.5243130360210111,-0.5092831079850388,-0.5092831079850388,-6.210569538243715e-13,3.00598560719446,0.21255528069963645,0.7138822515575362,1.1495665530603105e-13,5.635772905483214e-59,2.487753337116338e-10,6.434558373308869e-12,1563,0.92732734755468,0.97133405617752,0.97133405617752,2.051051757989697e-05
-0.004000000000000001,0.5227104377255232,-0.5107802320884132,-0.5107802320884132,-6.261105079631397e-13,2.9825514092774705,0.18863311383723727,0.7125362082574318,1.1658035647954534e-13,4.944404416141541e-59,2.4958491760630674e-10,6.0002597528501695e-12,1560,0.9411469245197445,0.9771762628482759,0.9771762628482759,2.0096154503601582e-05
-0.003000000000000001,0.5211437746968832,-0.5122656995866253,-0.5122656995866253,-6.248668467017991e-13,2.9593583700859925,0.162090733503782,0.711187678694549,1.1741996264191812e-13,4.370112478877988e-59,2.4871923538546554e-10,5.596351508733587e-12,1560,0.9553073471817212,0.9829642499031639,0.9829642499031639,1.969391873113402e-05
-0.0020000000000000005,0.5196124331715477,-0.5137396298463367,-0.5137396298463367,-6.253870286799888e-13,2.936401662605432,0.13131987453658298,0.7098366472601245,1.1839834668236904e-13,6.622042431616896e-58,2.497761878186942e-10,5.220626412024838e-12,1559,0.9698247603600759,0.9886977236295804,0.9886977236295804,1.9303346697974177e-05
-0.0010000000000000002,0.5181158164557201,-0.5152021398559238,-0.5152021398559238,-6.307455872704867e-13,2.913676599796227,0.09213854420490973,0.7084830982301014,1.200844979010185e-13,6.230796477823813e-58,2.4971735487904417e-10,4.871043800790679e-12,1556,0.9847162665452825,0.9943763990458195,0.9943763990458195,1.892399431402403e-05
0.0,0.5166533442941216,-0.5166533442941216,-0.5166533442941216,-6.54064753444477e-13,2.8911786292937496,0.0,0.7071270157626529,1.228739332503892e-13,3.316244841572204e-58,2.489400787931196e-10,4.5457165022701396e-12,1534,1.0,1.0,1.0,-3.766214386136113e-05
