w,energy,axial_pressure,hoop_pressure,normal_pressure_integral,condensate_integral,current_magnitude,center_condensate,max_normal_pressure,minimum_potential,max_bvp_residual,outer_tail_derivative,nodes,current_mode_speed_squared,axial_transverse_speed_squared,hoop_transverse_speed_squared,envelope_derivative_error
-0.0803300858899107,0.8276428772526564,-0.4079067032690054,-0.4079067032690054,-5.359318955575503e-11,5.225142850698347,1.4809393872370848,0.8042331619344932,1.663914145355605e-11,1.6594312150905948e-50,9.952338749012105e-09,4.009304425107305e-08,629,0.3053774919136265,0.49285351747730055,0.49285351747730055,-0.0028417440414898465
-0.077652416360247,0.8057689588115496,-0.4147731690176067,-0.4147731690176067,-5.3836110500856034e-11,5.0352044163059375,1.4031192848533907,0.8006006416668043,1.9227147651790233e-11,6.162975822039155e-33,9.980132339959917e-09,3.409277855999021e-08,629,0.3232057691230202,0.5147544646412873,0.5147544646412873,0.001356077843180259
-0.07497474683058332,0.7858912320926263,-0.4213965789668168,-0.4213965789668168,-5.514596297808764e-11,4.861565640887589,1.3311704180621187,0.7969639501985947,2.2125898335723093e-11,6.162975822039155e-33,9.904058395349309e-09,2.9149507205733567e-08,630,0.34232475071302615,0.536202163554804,0.536202163554804,0.0011404463220836547
-0.07229707730091962,0.7677111287813198,-0.42779694267740487,-0.42779694267740487,-5.80347035473457e-11,4.701631086538972,1.264180012554288,0.7933219814122697,2.538552701381036e-11,1.737906769696156e-51,9.872960038204528e-09,2.5039477977470135e-08,631,0.3610356498832583,0.5572368650647261,0.5572368650647261,0.000972544405049014
-0.06961940777125593,0.7509948736166239,-0.4339912015720012,-0.4339912015720012,-6.076575261131984e-11,4.553380762533655,1.201431821594764,0.7896737590610189,2.8907369553632378e-11,3.570744484455813e-51,9.964004939658009e-09,2.1595906612746337e-08,631,0.3794391807613726,0.5778883675756618,0.5778883675756618,0.0008392349792289977
-0.06694173824159225,0.7355558147636642,-0.4399938859900624,-0.4399938859900624,-6.878928037541463e-11,4.415211444120572,1.1423521393894074,0.7860184095862631,3.234811724039943e-11,1.5293682346871544e-57,9.945189899830006e-09,1.8691856478214606e-08,633,0.39762350463142626,0.5981787882832977,0.5981787882832977,0.0007316131045560503
-0.06426406871192855,0.7212424199452402,-0.4458175967591803,-0.4458175967591803,-7.895105682569567e-11,4.285829215400054,1.0864730801346207,0.7823551417433352,1.2351689115952524e-11,1.3029131508087928e-51,9.997265556494901e-09,1.6229023719550257e-08,635,0.4156675546509333,0.6181244813540344,0.6181244813540344,0.0006434682408751335
-0.06158639918226486,0.7079298844797811,-0.4514733662800854,-0.4514733662800854,-7.694011994138013e-11,4.164174584078428,1.033406848733073,0.7786832310143867,1.2408817029463393e-11,1.6637217047361864e-51,9.779496467314483e-09,1.4130152118058683e-08,634,0.43364352395186917,0.637737403347294,0.637737403347294,0.0005703617643795234
-0.058908729652601174,0.6955141177442076,-0.4569709346398019,-0.4569709346398019,-7.556962563263964e-11,4.049368990150555,0.9828272322614927,0.7750020075739207,1.2584482067534708e-11,4.7448496544345496e-52,9.713779207374634e-09,1.2333760665239367e-08,632,0.45161878893427876,0.6570261091491807,0.6570261091491807,0.0005090522954418475
-0.056231060122937486,0.6839073401469903,-0.4623189643870176,-0.4623189643870176,-7.72012512402038e-11,3.940675763101675,0.9344559603011753,0.7713108466259121,1.3002376952897521e-11,6.162975822039155e-33,9.86777490342446e-09,1.0790391083468837e-08,629,0.469657448808222,0.6759964943316045,0.6759964943316045,0.0004571277479312741
-0.0535533905932738,0.6730347979426757,-0.46752521013102705,-0.46752521013102705,-7.608104042684572e-11,3.8374710832494023,0.888052419937982,0.7676091607251544,1.318502945713007e-11,2.2142231536006488e-52,9.759478911799995e-09,9.459881774542253e-09,628,0.48782160471971,0.6946523590758639,0.6946523590758639,0.00041276311546067923
-0.05087572106361011,0.6628322706617958,-0.4725966542640344,-0.4725966542640344,-7.54749974484414e-11,3.739222018296491,0.8434057182037092,0.7638963935187327,1.3409960641919128e-11,5.149726954044453e-53,9.68873894193558e-09,8.30935144728228e-09,626,0.5061724594558775,0.7129958440197499,0.7129958440197499,0.0003745569429425277
-0.048198051533946414,0.6532441514468664,-0.4775396168734936,-0.4775396168734936,-7.508307969140048e-11,3.6454696607314556,0.8003284013704448,0.7601720145866697,1.3595027881230237e-11,6.162975822039155e-33,9.88838961636283e-09,7.311683819097877e-09,624,0.5247713014534765,0.7310277724121893,0.7310277724121893,0.0003414185378618484
-0.045520382004282725,0.6442219486830397,-0.4823598457079198,-0.4823598457079198,-7.750321926778635e-11,3.5558160069898226,0.758651340659177,0.7564355151497073,1.4178741514214721e-11,1.4461132514113724e-52,9.99592897248632e-09,6.444372823115042e-09,622,0.5436804206442649,0.7487479225040238,0.7487479225040238,0.0003124884260932159
-0.04284271247461904,0.6357231022054259,-0.4870625905299746,-0.4870625905299746,-7.751735751006279e-11,3.4699136233150796,0.7182194196146743,0.7526864044533015,1.4457109120957767e-11,6.162975822039155e-33,9.983592217652123e-09,5.688631465713542e-09,620,0.5629639943837865,0.7661552472141974,0.7661552472141974,0.00028708227925733354
-0.04016504294495535,0.627710037734957,-0.4916526651105787,-0.4916526651105787,-7.748332035764767e-11,3.3874574169095166,0.6788877344757909,0.7489242067008902,1.468764693202118e-11,4.1008575430416025e-53,9.991419913437278e-09,5.028696399639793e-09,619,0.5826889761072972,0.7832480533283636,0.7832480533283636,0.0002646495446307906
-0.03748737341529166,0.6201494039721921,-0.4961344993263097,-0.4961344993263097,-7.489453231876129e-11,3.3081780169558326,0.6405180569854232,0.7451484584151961,1.469872834558572e-11,2.3831772417622724e-52,9.76959949713823e-09,4.451279815487575e-09,618,0.6029260170216219,0.800024149258969,0.800024149258969,0.00024474326044710004
-0.034809703885627964,0.6130114514287801,-0.5005121832684268,-0.5005121832684268,-7.517757279328137e-11,3.231836401998275,0.6029753146180987,0.7413587061595874,1.5023420008031252e-11,1.5199253416931078e-52,9.634163142207031e-09,3.945133470526171e-09,617,0.6237504505820199,0.8164809680175714,0.8164809680175714,0.00022699744465137783
-0.032132034355964276,0.6062695223611337,-0.5047895048330799,-0.5047895048330799,-7.581718432464463e-11,3.158219501567822,0.5661238118791183,0.7375545045388668,1.533431021050191e-11,6.162975822039155e-33,9.77385591634425e-09,3.5006991287696877e-09,615,0.6452433706536913,0.83261567044829,0.83261567044829,0.00021111012944485807
-0.029454364826300587,0.5998996286983067,-0.5089699819620866,-0.5089699819620866,-7.641450295773205e-11,3.0871365677872813,0.529822835988941,0.7337354144434093,1.564612328586179e-11,2.465190328815662e-32,9.76795214769019e-09,3.109826154480095e-09,614,0.6674928378056822,0.8484252325117722,0.8484252325117722,0.00019683040775309024
-0.0267766952966369,0.5938801002491438,-0.5130568904481255,-0.5130568904481255,-7.734341042178187e-11,3.0184161602335458,0.4939211299239386,0.7299010014840828,1.606061811321169e-11,2.465190328815662e-32,9.859207350194296e-09,2.765541865017081e-09,612,0.6905952521808741,0.8639065195700084,0.8639065195700084,0.0001839483551915322
-0.024099025766973207,0.5881912895384972,-0.5170532880479999,-0.5170532880479999,-7.823172467939988e-11,2.9519036237551615,0.4582494128599608,0.7260508345881332,1.645998615185107e-11,2.465190328815662e-32,9.966082915930956e-09,2.4618635941576125e-09,611,0.7146569400524112,0.8790563499396375,0.8790563499396375,0.0001722872569140943
-0.02142135623730952,0.5828153226129653,-0.520962035492635,-0.520962035492635,-7.63505513830668e-11,2.8874589654879412,0.4226095460830219,0.722184484727693,1.6486700893381112e-11,2.2484102687767867e-55,9.88684359210606e-09,2.1936440629391627e-09,610,0.7397960106023754,0.8938715494935507,0.8938715494935507,0.000161697521482429
-0.01874368670764583,0.5777358874468916,-0.5247858148830938,-0.5247858148830938,-7.746638894231246e-11,2.8249550576514237,0.3867577734087715,0.7183015237629601,1.684088285491825e-11,9.944716946053222e-53,9.782087433373248e-09,1.9564434616203195e-09,609,0.7661445525277153,0.9083489987132481,0.9083489987132481,0.00015205176246202434
-0.016066017177982138,0.5729380532902686,-0.5285271458619198,-0.5285271458619198,-7.887701801718517e-11,2.7642761075353586,0.35037695460482104,0.7144015233682469,1.7338679103584553e-11,1.4168162911656466e-55,9.989869749684159e-09,1.7464231584539577e-09,607,0.7938512593588938,0.9224856733231354,0.9224856733231354,0.0001432410153763275
-0.01338834764831845,0.5684081156678354,-0.5321883998920233,-0.5321883998920233,-7.713411209924449e-11,2.705316348755058,0.3130268187161706,0.7104840540416365,1.7439230615146073e-11,2.787273607717339e-53,9.762971086144571e-09,1.560256961254386e-09,607,0.823084596402678,0.9362786793899718,0.9362786793899718,0.00013517166007148695
-0.01071067811865476,0.5641334627442499,-0.5357718129071534,-0.5357718129071534,-7.8588734754457e-11,2.647978916264807,0.27404570932440636,0.7065486841779592,1.7876498892288595e-11,9.180032828709644e-55,9.815927863046767e-09,1.3950567596602457e-09,606,0.8540366537576974,0.9497252836250306,0.9497252836250306,0.00012776268748271313
-0.008033008588991069,0.560102459596947,-0.5392794965638079,-0.5392794965638079,-8.030837237735912e-11,2.5921748747631423,0.232328994300378,0.7025949791838558,1.8299944892774533e-11,1.7679496792983506e-54,9.994043138396378e-09,1.2483099628616696e-09,604,0.8869278763940992,0.9628229394883867,0.9628229394883867,0.00012094407388629769
-0.00535533905932738,0.5563043475795048,-0.5427134482813891,-0.5427134482813891,-7.883917666708073e-11,2.537822376427179,0.1857183037681692,0.698622500642917,1.8431492443404807e-11,1.9463749776627407e-53,9.75160072212994e-09,1.1178266860116322e-09,604,0.9220129217740831,0.9755693095744263,0.9755693095744263,0.00011465475518357415
-0.00267766952966369,0.5527291564543951,-0.5460755602279547,-0.5460755602279547,-8.060210733922826e-11,2.4848459276736117,0.12858134191108472,0.6946308055144235,1.8978305038608312e-11,6.162975822039155e-33,9.947008691519993e-09,1.0016950263877103e-09,603,0.9595879787332864,0.9879622846945122,0.9879622846945122,0.00010884139791356162
0.0,0.5493676273904193,-0.5493676273904193,-0.5493676273904193,-7.896762669273071e-11,2.4331757481876193,0.0,0.6906194453467769,1.9105744764047472e-11,6.162975822039155e-33,9.729994395075567e-09,8.982430606581435e-10,608,1.0,1.0,1.0,-0.00021492951179014064
