w,energy,axial_pressure,hoop_pressure,normal_pressure_integral,condensate_integral,current_magnitude,center_condensate,max_normal_pressure,minimum_potential,max_bvp_residual,outer_tail_derivative,nodes,current_mode_speed_squared,axial_transverse_speed_squared,hoop_transverse_speed_squared,envelope_derivative_error
0.0,0.5166533442957821,-0.5166533442957821,-0.5166533442957821,-7.180630181117145e-11,2.8911786299091116,0.0,0.7071270157913594,1.2528499071517984e-11,2.465190328815662e-32,9.72868711658906e-09,3.4837763613654967e-08,603,1.0,1.0,1.0,-0.00033999955379737656
0.003095166612513632,0.5210746115072469,-0.5210746115072469,-0.5123371543178344,-7.578593502069224e-11,2.822935978337125,0.1570518457681193,0.7029134861671581,1.3209079663401013e-11,4.6344180525230835e-51,9.973693203251545e-09,3.01703118541675e-08,594,0.9523633858907001,1.0,0.9832318501104118,0.00016748708599734208
0.006190333225027264,0.525391838286068,-0.525391838286068,-0.5083269249067098,-7.571480114179732e-11,2.7567035180538073,0.2168937683479167,0.6986750513912147,1.3470564941275853e-11,1.0483268676215958e-51,9.903052047865666e-09,2.6159153815685415e-08,594,0.9052721149839824,1.0,0.9675196450804656,0.00015802217756744064
0.009285499837540897,0.529608046406862,-0.529608046406862,-0.5046080672029303,-7.564630599201588e-11,2.692367631396399,0.2594400408461436,0.6944112185589789,1.3741181803528235e-11,8.094242556811153e-52,9.829736505225219e-09,2.270719014322792e-08,594,0.8586229443734688,1.0,0.9527953183990602,0.00014931899656023262
0.012380666450054529,0.533726089021724,-0.533726089021724,-0.5011671171299309,-7.558699236784064e-11,2.6298238485901404,0.29261640549807505,0.6901214820438907,1.4076177723421068e-11,2.465190328815662e-32,9.75545741947248e-09,1.9732468835513036e-08,594,0.8123194000773869,1.0,0.9389968514533905,0.00014129896353143323
0.01547583306256816,0.5377486640674789,-0.5377486640674789,-0.4979916218663997,-7.582603386150329e-11,2.568975901997851,0.3195854867625939,0.6858053227439941,1.4421921989971054e-11,2.34016280430655e-51,9.869241729553292e-09,1.7165689370237185e-08,593,0.7662707742493041,1.0,0.9260676132593976,0.00013389326678914237
0.018570999675081794,0.541678326305878,-0.541678326305878,-0.49507004031421914,-7.809910779537087e-11,2.5097348988809105,0.34201526563925244,0.6814622073043832,1.5064692548971692e-11,5.179986524146563e-51,9.947190682217706e-09,1.4948141822546652e-08,592,0.7203912489927442,1.0,0.9139557856975437,0.00012704141320640794
0.021666166287595424,0.5455174981614365,-0.5455174981614365,-0.4923916555362871,-7.80976994457658e-11,2.4520185952586155,0.3609231968239904,0.6770915873084586,1.546808514607534e-11,7.93650351708552e-53,9.87741732066412e-09,1.303000077188976e-08,592,0.6745991253558787,1.0,0.9026138615091176,0.00012069007214732252
0.024761332900109057,0.5492684795069486,-0.5492684795069486,-0.4899464974755823,-7.836950022544504e-11,2.395750756660796,0.3769889697832863,0.6726928984449635,1.5907636319312246e-11,2.465190328815662e-32,9.943345365970062e-09,1.1368909307423645e-08,591,0.6288161391326715,1.0,0.8919982044398093,0.00011479232422217933
0.02785649951262269,0.5529334565180958,-0.5529334565180958,-0.48772527454124415,-7.84014490783529e-11,2.340860593316968,0.39069587091682206,0.6682655596315399,1.6330457819346833e-11,1.832958025060786e-52,9.793336475654096e-09,9.928801035700004e-09,591,0.5829668482373213,1.0,0.8820686626787294,0.00010930649022711236
0.03095166612513632,0.5565145097035302,-0.5565145097035302,-0.48571931286191766,-7.84695689821014e-11,2.287282259875459,0.40240352610310387,0.6638089721027632,1.680286465521874e-11,2.998810724045151e-53,9.691735346245671e-09,8.678917878544971e-09,591,0.5369780799415944,1.0,0.8727882281464198,0.00010419547577544819
0.034046832737649954,0.5600136212069727,-0.5600136212069727,-0.4839205022011307,-8.10278556025313e-11,2.234954410948662,0.4123889571326422,0.6593225184537259,1.7701590193652805e-11,1.2370572801496352e-51,9.976955715031762e-09,7.592989286822509e-09,590,0.49077842628809576,1.0,0.8641227353687543,9.942630812442843e-05
0.03714199935016359,0.5634326814587672,-0.5634326814587672,-0.4823212476761514,-8.137321129854935e-11,2.18381980511931,0.42087142397185845,0.6548055616307515,1.8287461822641404e-11,1.0277991773862133e-52,9.927327797320815e-09,6.648544957755541e-09,589,0.4442977799248393,1.0,0.856040594641027,9.496962079835747e-05
0.04023716596267722,0.566773495249123,-0.566773495249123,-0.4809144265422103,-8.15408406745267e-11,2.1338249514529197,0.42802829709649,0.6502574438773763,1.8879411922689826e-11,2.465190328815662e-32,9.884276084660752e-09,5.826338165613877e-09,589,0.39746690173688537,1.0,0.8485125549684116,9.07990285212712e-05
0.04333233257519085,0.5700377872816959,-0.5700377872816959,-0.47969334942415187,-8.175220021186649e-11,2.084919792876997,0.4340056528036697,0.6456774856132567,1.960427653546759e-11,2.465190328815662e-32,9.848322609511643e-09,5.109861010227074e-09,589,0.35021701310117104,1.0,0.8415114929689768,8.689080827917195e-05
0.04642749918770448,0.5732272072648622,-0.5732272072648622,-0.47865172545341256,-8.200929806330349e-11,2.037057422134341,0.4389256055141288,0.6410649842531347,2.034934026839963e-11,2.644130476081502e-52,9.819862104459045e-09,4.484936144796452e-09,589,0.30247940822049846,1.0,0.8350122244498583,8.322368281343806e-05
0.049522665800218114,0.5763433345847879,-0.5763433345847879,-0.4777836308470148,-8.247826483153524e-11,1.9901938263052659,0.44289153740096676,0.6364192129552738,2.1154730744932237e-11,2.4655257557406203e-52,9.858772803063526e-09,3.939372337782362e-09,588,0.2541850799275779,1.0,0.8289913358523041,7.977853184459871e-05
0.05261783241273175,0.5793876826041694,-0.5793876826041694,-0.47708348053015553,-8.281772142382503e-11,1.9442876565409355,0.44599192515647046,0.6317394192934613,2.207753424521286e-11,7.200577894921706e-53,9.786398605082628e-09,3.46267337452438e-09,588,0.2052643545910834,1.0,0.8234270331495693,7.653803069063159e-05
0.05571299902524538,0.5823617026203501,-0.5823617026203501,-0.4765460024521724,-8.320844764261871e-11,1.8993000200945804,0.4483032025936714,0.6270248238462427,2.3032187268512416e-11,3.519140031691588e-54,9.78160691844058e-09,3.0457916564540244e-09,588,0.1556465315050245,1.0,0.8182990061124255,7.348641168203329e-05
0.05880816563775901,0.5852667875188884,-0.5852667875188884,-0.47616621429800543,-8.380138975392586e-11,1.8551942921143,0.44989194336615995,0.6222746186952278,2.4152818633993434e-11,5.511460775753834e-53,9.99470286238713e-09,2.68091927928546e-09,587,0.1052595224619115,1.0,0.8135883061408777,7.0609549896683e-05
0.06190333225027264,0.588104275149671,-0.588104275149671,-0.4759394023303042,-8.428449056960595e-11,1.8119359449970918,0.4508165534088537,0.617487965824609,2.534124993180953e-11,1.3749036360756633e-53,9.847531076534634e-09,2.3613106307541237e-09,587,0.054029487428377876,1.0,0.8092772360975932,6.789453173738913e-05
0.06499849886278627,0.5908754514496324,-0.5908754514496324,-0.4758611021306505,-8.482172257734705e-11,1.7694923933825077,0.45112860278392575,0.6126639954132153,2.6658474039376046e-11,6.162975822039155e-33,9.814220952036627e-09,2.0811315377347995e-09,587,0.0018804622020742734,1.0,0.8053492507823606,6.532954755245068e-05
0.06809366547529991,0.5935815533384342,-0.5935815533384342,-0.4759270810421482,-8.541325176107962e-11,1.7278328531009062,0.4508738876313127,0.6078018040086173,2.8081259539902703e-11,6.162975822039155e-33,9.84006626120435e-09,1.83533078731387e-09,587,-0.05126602603298869,1.0,0.8017888668632454,6.290391716157195e-05
0.07118883208781354,0.5962237714047628,-0.5962237714047628,-0.476133322133506,-8.605892681736963e-11,1.6869282126039338,0.4500932869305703,0.6029004525729661,2.95735519406648e-11,6.162975822039155e-33,9.872891833662084e-09,1.6195305658119086e-09,587,-0.10549135941924015,1.0,0.7985815812269416,6.060783519357127e-05
0.07428399870032718,0.5988032524024891,-0.5988032524024891,-0.476476009529825,-8.68756234112391e-11,1.6467509155794195,0.4488234610633292,0.5979589643884408,3.113694024836633e-11,5.0475524112320634e-55,9.912317908922898e-09,1.4299328998142452e-09,586,-0.16088025081201995,1.0,0.7957137968408342,5.843241309733127e-05
0.07737916531284081,0.6013211015738987,-0.6013211015738987,-0.4769515149733944,-8.761955395958737e-11,1.6072748536079853,0.4470974268508053,0.5929763228089557,3.2756637680098066e-11,7.873203603088584e-54,9.957928112068185e-09,1.2632396547833164e-09,586,-0.21752119063327857,1.0,0.793172755329924,5.63694962872896e-05
0.08047433192535444,0.603778384812475,-0.603778384812475,-0.47755638549146245,-8.638723143810178e-11,1.5684752678418308,0.4449450350240542,0.5879514688429971,3.417490596069328e-11,3.234972262043337e-55,9.771307897338676e-09,1.1165840496406675e-09,587,-0.27550692316444714,1.0,0.7909464755678272,5.441145264617475e-05
0.08356949853786806,0.6061761306804991,-0.6061761306804991,-0.47828733205982366,-8.728241340925963e-11,1.5303286588793517,0.4423933698405413,0.5828832985564097,3.593156328030034e-11,7.227698691616825e-55,9.831950940314474e-09,9.87471945251509e-10,587,-0.33493496006272916,1.0,0.7890236976551579,5.25513719599191e-05
0.0866646651503817,0.6085153322941151,-0.6085153322941151,-0.47914121918061503,-8.833156074983049e-11,1.4928127038742773,0.439467085921461,0.5777706602633846,3.776072510230932e-11,4.658360057342405e-55,9.89677906310713e-09,8.737314612417327e-10,586,-0.3959081349703544,1.0,0.7873938317613838,5.0783036613877286e-05
0.08975983176289533,0.6107969490841858,-0.6107969490841858,-0.4801150552686122,-8.932429653526022e-11,1.4559061804034519,0.43618869411405076,0.5726123515040372,3.9649589167467525e-11,2.7548143600280157e-55,9.965304441190717e-09,7.734696833448979e-10,586,-0.4585352055334766,1.0,0.7860469113155937,4.910060505070035e-05
0.09285499837540896,0.6130219084437589,-0.6130219084437589,-0.4812059837854127,-8.863807388599963e-11,1.4195888962855805,0.4325788055355982,0.5674071157714867,4.1383445281706344e-11,1.8754276250829017e-55,9.82111773243089e-09,6.850354285614408e-10,587,-0.5229315122667135,1.0,0.78497355014117,4.7498561212888646e-05
0.0959501649879226,0.6151911072713856,-0.6151911072713856,-0.48241127504352027,-8.97783222450903e-11,1.3838416249162107,0.4286563411245784,0.5621536389735178,4.341311338196263e-11,1.1570666377852783e-54,9.896318867044101e-09,6.06987176752153e-10,587,-0.5892197034295812,1.0,0.784164903135879,4.597170758069424e-05
0.09904533160043623,0.6173054134183951,-0.6173054134183951,-0.4837283186378664,-8.521514442534136e-11,1.348646045422908,0.42443871246016335,0.5568505455742455,4.453140634019803e-11,3.158265882204754e-54,9.98920070721923e-09,5.380654287051848e-10,592,-0.6575305308644823,1.0,0.7836126301876551,4.451559259999183e-05
0.10214049821294986,0.619365667049629,-0.619365667049629,-0.4851546164187637,-7.175811841793232e-11,1.3139846875531445,0.4199419786463089,0.5514963944559779,4.411825765826549e-11,2.826966488365649e-54,9.985873224948773e-09,4.771688506134087e-10,606,-0.7280037277403555,1.0,0.7833088629691333,4.31264167205514e-05
0.1052356648254635,0.621372681919554,-0.621372681919554,-0.4866877759760307,-6.278892400905526e-11,1.279840880626375,0.4151809829819272,0.546089674382296,4.148656418401231e-11,1.7563838320235293e-57,9.981182826753685e-09,4.233336702313343e-10,616,-0.8007889963038708,1.0,0.7832461743772632,4.1800170296868444e-05
0.10833083143797713,0.6233272465696569,-0.6233272465696569,-0.4883255046182613,-5.7064695659241755e-11,1.2461987059398554,0.41016947243725443,0.5406287990098616,3.7987335499423125e-11,1.50636797022018e-56,9.997285393392063e-09,3.757158579102955e-10,623,-0.8760471006224173,1.0,0.7834175504209904,4.0532961878558815e-05
0.11142599805049076,0.6252301254592774,-0.6252301254592774,-0.49006560374999786,-5.2880485693910615e-11,1.213042952938436,0.4049202026902782,0.5351121015205632,3.45635048359938e-11,4.559827322638863e-56,9.993986448248981e-09,3.335757058100005e-10,627,-0.9539510820045647,1.0,0.7838163642387013,3.9321231391609146e-05
0.1145211646630044,0.627082060028662,-0.627082060028662,-0.4919059636464902,-5.0252456339075224e-11,1.180359078428409,0.3994450307003584,0.5295378287222384,3.255712366367902e-11,3.1113184592661248e-55,9.970017078550429e-09,2.96264466882778e-10,631,-1.034687633265905,1.0,0.784436352116351,3.816189484984189e-05
0.11761633127551802,0.6288837697044518,-0.6288837697044518,-0.4938445585953435,-4.74007971573472e-11,1.1481331686224512,0.3937549965892201,0.5239041345782841,2.98548616384231e-11,8.658018925935431e-55,9.97373946198192e-09,2.6321277125257623e-10,635,-1.1184586420101978,1.0,0.7852715913266916,3.705204045423294e-05
0.12071149788803165,0.6306359528433789,-0.6306359528433789,-0.4958794423571618,-4.594459583185788e-11,1.1163519038692833,0.38786039632845926,0.5182090731150788,2.6154953203239018e-11,4.278250816552313e-55,9.945574175985332e-09,2.3392057044731664e-10,638,-1.2054829339789022,1.0,0.7863164796129464,3.5988910584094924e-05
0.12380666450054528,0.6323392876284729,-0.6323392876284729,-0.49800874394156486,-4.511896467904034e-11,1.085002525743001,0.3817708464311093,0.5124505906110488,2.5021137939340576e-11,6.589249683787717e-55,9.985881847508951e-09,2.0794840322353125e-10,640,-1.2959982483058212,1.0,0.7875657161984957,3.496996799490226e-05
0.12690183111305892,0.6339944329113064,-0.6339944329113064,-0.500230663651847,-4.417622848562369e-11,1.0540728064064502,0.37549534172719534,0.5066265169973238,2.1806258188039607e-11,2.246508515307873e-57,9.987592732463849e-09,1.849098017784603e-10,642,-1.3902634812084096,1.0,0.789014284170895,3.3992911341984566e-05
0.12999699772557255,0.6356020290134692,-0.6356020290134692,-0.5025434693952356,-4.279877738186842e-11,1.0235510199945081,0.3690423070817803,0.5007345563497814,1.8897453046839985e-11,1.4577786669306402e-56,9.944617395531662e-09,1.6446468326182811e-10,645,-1.4885612452978254,1.0,0.7906574341419954,3.305548201670838e-05
0.13309216433808618,0.6371626984790463,-0.6371626984790463,-0.5049454932213319,-4.2451761359228056e-11,0.9934259159077979,0.36241964382731007,0.4947722763726701,1.6628781684957517e-11,1.0323633857116077e-55,9.966534863350426e-09,1.4631359600294437e-10,647,-1.5912007981307381,1.0,0.792490669065646,3.215546957319182e-05
0.13618733095059982,0.6386770467934645,-0.6386770467934645,-0.507435128091665,-4.221543596616729e-11,0.9636866938041815,0.3556347715314888,0.4887370967163244,1.439889873999789e-11,2.151570194228823e-56,9.990881889560743e-09,1.301927033031808e-10,649,-1.6985214027774482,1.0,0.7945097301355806,3.129105454557912e-05
0.13928249756311345,0.6401456630606872,-0.6401456630606872,-0.5100108248404103,-4.403320176763626e-11,0.9343229802531975,0.34869466569010893,0.48262627599338137,2.3346505284571606e-11,3.005871954588879e-56,9.970498086954671e-09,1.1586940878760067e-10,647,-1.8108962012787848,1.0,0.7967105836536147,3.0460452081604306e-05
0.14237766417562708,0.641569120647597,-0.641569120647597,-0.5126710893376079,-4.441149083250009e-11,0.9053248067828219,0.3416058917676948,0.4764368972696659,2.3995389009101586e-11,3.873957693789397e-56,9.968902925960331e-09,1.0313853701466448e-10,648,-1.9287366892318212,1.0,0.7990894088233548,2.9661827131488572e-05
0.14547283078814072,0.6429479777927157,-0.6429479777927157,-0.5154144798038519,-4.541095643525689e-11,0.8766825894424027,0.3343746360858199,0.4701658518806507,2.461930659336531e-11,7.623193715379901e-57,9.926628377859451e-09,9.181899786594264e-11,649,-2.0524979107950974,1.0,0.8016425863462624,2.889360710528477e-05
0.14856799740065435,0.6442827781892672,-0.6442827781892672,-0.5182396043116209,-4.655771154354473e-11,0.8483871094912607,0.32700673381011697,0.4638098212316414,2.5249052848508313e-11,1.1007891725008577e-57,9.968890129131494e-09,8.175086948029116e-11,649,-2.1826845148197576,1.0,0.8043666878200811,2.8154333233887385e-05
0.15166316401316798,0.6455740515332045,-0.6455740515332045,-0.5211451184171649,-4.752983131470845e-11,0.8204294953600999,0.31950769443721994,0.45736525634942155,2.5727989183543798e-11,6.550818830637757e-56,9.973077100577002e-09,7.27928467596823e-11,649,-2.319857834428336,1.0,0.8072584658250632,2.7442563728330427e-05
0.15475833062568162,0.6468223140498411,-0.6468223140498411,-0.5241297229439843,-4.767591487130748e-11,0.7928012056592748,0.31188272500121567,0.4508283547867456,2.631068973801831e-11,4.436325361434431e-57,9.944081575719561e-09,6.482000714121692e-11,651,-2.4646442087596534,1.0,0.8103148446786536,2.6757075551886444e-05
0.15785349723819525,0.6480280689905354,-0.6480280689905354,-0.5271921618853215,-4.858048874917114e-11,0.7654940132423984,0.30413675127112777,0.4441950344777745,2.678705868230935e-11,4.602542099506102e-58,9.951288340233157e-09,5.772185386078487e-11,651,-2.6177448060869497,1.0,0.8135329117866054,2.609645106821379e-05
0.16094866385070888,0.6491918071074362,-0.6491918071074362,-0.5303312204375339,-4.859637055989458e-11,0.7384999901593072,0.2962744371120334,0.43746090400972104,2.7297178406548994e-11,8.727794484738449e-57,9.959124988310307e-09,5.140059984481044e-11,653,-2.779947273218437,1.0,0.8169099095697124,2.5459589311993547e-05
0.16404383046322252,0.6503140071067598,-0.6503140071067598,-0.5335457231372905,-4.9225349735690266e-11,0.7118114935486577,0.28830020223964753,0.4306212287196264,2.769387497103537e-11,9.93194794100458e-57,9.982230336579442e-09,4.576966253360052e-11,653,-2.9521396218346214,1.0,0.8204432278969814,2.4845414767882268e-05
0.16713899707573612,0.651395136078068,-0.651395136078068,-0.5368345321093728,-4.8992724637021935e-11,0.6854211522926861,0.28021823848487976,0.42367089185205015,2.8264446338965854e-11,4.078315292499079e-57,9.933182034875366e-09,4.075234252995307e-11,654,-3.13532687149236,1.0,0.824130397014562,2.4252830785775892e-05
0.17023416368824976,0.6524356499059509,-0.6524356499059509,-0.5401965454060831,-4.9697073320604055e-11,0.6593218544863393,0.27203252475529266,0.41660434988700656,2.8791774520087188e-11,5.305991746515526e-57,9.957700175142467e-09,3.6280662697274467e-11,653,-3.3306511086626083,1.0,0.827969080910819,2.368080538261985e-05
0.1733293303007634,0.6534359936610511,-0.6534359936610511,-0.5436306954447803,-4.978377039917489e-11,0.6335067355636542,0.2637468407783937,0.4094155809156909,2.9393570910585254e-11,6.573059887240833e-57,9.96252632992548e-09,3.2294348154121424e-11,654,-3.539415811095439,1.0,0.8319570711110401,2.3128427856844436e-05
0.17642449691327702,0.6543966019753454,-0.6543966019753454,-0.5471359475253303,-4.98265669864971e-11,0.6079691671318195,0.2553647797798077,0.4020980247064403,2.9989566385779654e-11,1.54369672736443e-57,9.946421764622821e-09,2.873992875115387e-11,655,-3.7631155310615894,1.0,0.8360922808488909,2.259492267986385e-05
0.17951966352579066,0.6553178993986958,-0.6553178993986958,-0.5507112984295518,-5.026737658759852e-11,0.5827027463992306,0.2468897601688021,0.39464451275781903,3.0500088565865724e-11,1.0597950593579474e-57,9.919216835887513e-09,2.55699494125676e-11,653,-4.003472375111137,1.0,0.8403727396045056,2.2079355434245773e-05
0.1826148301383043,0.6562003007395879,-0.6562003007395879,-0.5543557750937232,-5.0197442075603024e-11,0.5577012861919929,0.23832503633548888,0.3870471862193724,3.10832609651257e-11,2.5016676992383745e-57,9.847808544226022e-09,2.2742274572453126e-11,654,-4.262481161771016,1.0,0.8447965879761438,2.15809603039685e-05
0.18570999675081792,0.6570442113928088,-0.6570442113928088,-0.5580684333532779,-5.05785611572568e-11,0.532958805509725,0.22967370863541176,0.3792973989959413,3.187575203789095e-11,9.035973758836328e-58,9.944692492655637e-09,2.0219475558537714e-11,654,-4.542465770544734,1.0,0.849362072866115,2.1099059244855667e-05
0.18880516336333156,0.6578500276504542,-0.6578500276504542,-0.5618483567518474,-5.0681191296077405e-11,0.5084695205811919,0.22093873263148758,0.3713856026381371,3.2393782101181046e-11,2.2583478018740036e-57,9.847598427343227e-09,1.796829017327121e-11,653,-4.846150052815434,1.0,0.854067542960389,2.0632819674293312e-05
0.1919003299758452,0.6586181370004216,-0.6586181370004216,-0.5656946554083352,-5.104750175656313e-11,0.484227836417909,0.21212292767109206,0.36330120865395726,3.319790276012924e-11,2.5266842206553762e-57,9.965674850086261e-09,1.5959146070219796e-11,652,-5.176747900645441,1.0,0.858911444474802,2.018168167999823e-05
0.19499549658835882,0.6593489184139193,-0.6593489184139193,-0.5696064649505925,-5.151376384629509e-11,0.46022833877428215,0.20322898482980994,0.3550324225538944,3.397820913519922e-11,4.287035224918542e-58,9.99744125370811e-09,1.4165739861497837e-11,650,-5.538078790757684,1.0,0.8638923171676621,1.974494042583652e-05
0.19809066320087246,0.6600427426164891,-0.6600427426164891,-0.5735829454910626,-5.122379794344767e-11,0.4364657865663887,0.19425947430876986,0.34656604224038445,3.45638656584768e-11,6.983778895579669e-59,9.848084259229553e-09,1.2564665486158998e-11,651,-5.9347176274228275,1.0,0.8690087905781837,1.9322034027158264e-05
0.2011858298133861,0.6606999723538333,-0.6606999723538333,-0.5776232806654779,-5.156292763985261e-11,0.41293510465133043,0.1852168523013425,0.3378872108564179,3.540077953001486e-11,1.9515375911372545e-58,9.899189822508255e-09,1.1135085473923162e-11,649,-6.3721913880113075,1.0,0.8742595804985682,1.8912462661668794e-05
0.20428099642589972,0.6613209626399867,-0.6613209626399867,-0.5817266767092116,-5.186272310131461e-11,0.3896313769922643,0.17610346739324562,0.3289791108928075,3.6293912319962374e-11,2.5290723027682554e-60,9.943692147672944e-09,9.858440172766576e-12,647,-6.8572405539518,1.0,0.8796434856487302,1.851551461409806e-05
0.20737616303841336,0.6619060610002927,-0.6619060610002927,-0.5858923615854673,-5.2189876061218076e-11,0.3665498401604865,0.1669215665230575,0.3198225815009444,3.7244970996219706e-11,4.7644960721124383e-60,9.981362104812601e-09,8.718190210292662e-12,644,-7.3981716843281,1.0,0.885159384550806,1.8130762975215875e-05
0.210471329650927,0.6624556077025381,-0.6624556077025381,-0.5901195841537024,-5.184911909347623e-11,0.34368587716344656,0.15767330054228376,0.310395634060658,3.799441317120511e-11,4.370112478877988e-59,9.76232548407003e-09,7.699588056252141e-12,643,-8.00534048201398,1.0,0.8908062325871099,1.7757709197319116e-05
0.21356649626344062,0.6629699359786188,-0.6629699359786188,-0.5944076133752088,-5.203975390352811e-11,0.32103501159112663,0.14836072941213346,0.30067283084730706,3.887266897262265e-11,5.3967641478045024e-58,9.777016855955722e-09,6.789475229646145e-12,643,-8.691825416260908,1.0,0.8965830592269554,1.739592881203067e-05
0.21666166287595426,0.663449372238459,-0.663449372238459,-0.5987557375636942,-5.2597459378996286e-11,0.2985929020207147,0.13898582704652296,0.29062447629365357,3.9953290675853737e-11,1.1207285885626482e-58,9.987660044198047e-09,5.9761016349461046e-12,640,-9.474385758234622,1.0,0.9024889654255148,1.7044955413575424e-05
0.2197568294884679,0.6638942362736406,-0.6638942362736406,-0.6031632636621304,-5.278201851530897e-11,0.2763553367277592,0.12955048585728365,0.2802155467881847,4.085901061934294e-11,3.5472159429945686e-59,9.966518981901402e-09,5.248964223010027e-12,639,-10.374854737231308,1.0,0.9085231211640186,1.67043514957832e-05
0.22285199610098153,0.6643048414553908,-0.6643048414553908,-0.6076295165615732,-5.169986064033125e-11,0.2543182286244203,0.12005652099619271,0.2694042475671661,4.1772640901882596e-11,1.3491910369511256e-58,9.996771386337431e-09,4.598662028018369e-12,641,-11.422217267284937,1.0,0.9146847631433024,1.6373794405694087e-05
0.22594716271349516,0.664681494923076,-0.664681494923076,-0.6121538384443627,-4.9627854519878714e-11,0.2324776104638204,0.11050567434044145,0.25814002445155765,4.2157763391337255e-11,7.981235871737779e-59,9.97402067337464e-09,4.016764901509039e-12,643,-12.65579968719938,1.0,0.920973192604388,1.605280868090253e-05
0.2290423293260088,0.6650244977656903,-0.6650244977656903,-0.6167355881589006,-4.779592305046573e-11,0.21082963026479426,0.10089961822667882,0.24636075533242244,4.188970004204151e-11,6.698492538935222e-60,9.92969500110082e-09,3.4956927805811116e-12,646,-14.130333899999881,1.0,0.9273877732789877,1.5741024321905273e-05
0.2321374959385224,0.6653341451977861,-0.6653341451977861,-0.6213741406302562,-4.6579882038222716e-11,0.18937054692436303,0.09123995894207028,0.23398866548581274,4.2221698359767856e-11,2.1442420103314596e-59,9.92478840175889e-09,3.0286020212791382e-12,647,-15.92432042334337,1.0,0.9339279294699931,1.54381931678077e-05
0.23523266255103603,0.6656107267274841,-0.6656107267274841,-0.6260688862888106,-4.6049046153940015e-11,0.1680967260662384,0.08152824001764414,0.22092417718330187,4.33510727315678e-11,7.78873564523238e-60,9.970963186054516e-09,2.6092738047187035e-12,648,-18.15450289009845,1.0,0.9405931442344937,1.5143922340185578e-05
0.23832782916354966,0.6658545263179048,-0.6658545263179048,-0.6308192305273683,-4.533737724303388e-11,0.14700463606578604,0.07176594531631961,0.20703625220262822,4.3250694692353875e-11,4.781323737448764e-59,9.926238136211263e-09,2.2319969403768304e-12,649,-21.00238703415802,1.0,0.947382957679544,1.4857889653566159e-05
0.2414229957760633,0.6660658225442077,-0.6660658225442077,-0.6356245931813154,-4.503946659241533e-11,0.12609084426708295,0.061954501942110676,0.1921464210711707,4.4310291547056124e-11,1.9039145082042165e-60,9.982139717518557e-09,1.8914309461784517e-12,647,-24.76637970785778,1.0,0.954296965356045,1.4579801813630056e-05
0.24451816238857693,0.6662448887430555,-0.6662448887430555,-0.6404844080323903,-4.4214034841547115e-11,0.10535201335976009,0.05209528297249049,0.17600057646889336,4.314797130700043e-11,6.860874343841911e-60,9.964896475260532e-09,1.5824206452334311e-12,648,-29.973966770352412,1.0,0.9613348167529431,1.430934052281535e-05
0.24761332900109057,0.6663919931581059,-0.6663919931581059,-0.6453981223337862,-4.34236281378773e-11,0.08478489792537494,0.042189610034918036,0.15821465101755094,4.3896150603295325e-11,3.5885041908439717e-60,9.949341109651171e-09,1.2996947561883646e-12,649,-37.65076578320501,1.0,0.9684962138803208,-2.848618879670861e-05
